393
394
406
406
403
404
405
412
409
409
416
412
415
418
419
418
420
419
423
422
423
423
423
421
421
419
418
417
414
413
412
414
413
413
413
420
430
437
445
462
475
488
501
508
512
518
516
514
509
504
501
490
483
475
467
460
454
446
436
433
423
423
417
411
408
400
400
397
396
393
390
391
386
381
388
388
388
390
393
394
393
397
398
397
398
398
398
398
397
400
400
401
399
397
399
397
402
403
405
409
411
417
418
421
426
429
430
430
437
440
443
448
443
447
447
445
446
443
442
445
438
434
437
435
431
432
432
430
430
427
428
428
427
424
423
424
422
422
422
417
422
423
421
414
419
419
413
416
418
416
418
420
415
415
416
415
418
412
414
413
419
420
422
428
423
424
424
422
418
417
412
416
417
412
416
416
416
413
411
409
411
405
408
404
406
405
401
410
411
408
402
401
398
400
399
398
399
396
392
394
390
387
383
380
377
371
368
360
361
355
353
345
346
336
340
333
333
333
328
330
332
327
324
329
331
331
332
326
332
331
331
334
335
334
337
348
364
386
428
468
518
570
629
684
740
795
845
895
940
986
1022
1022
1023
1022
1016
1022
1022
1022
1020
1023
1022
1023
1022
1023
1023
1023
1022
1022
1023
1023
1023
1023
1023
1020
1016
1017
1016
1018
1023
1021
1023
1020
1023
1022
1016
1010
999
987
974
957
940
926
908
888
880
860
847
831
815
802
789
769
760
751
736
723
707
702
694
684
676
668
664
654
651
643
638
628
626
619
616
611
606
599
600
600
592
587
585
582
577
574
572
569
566
564
563
561
557
558
556
552
552
553
551
556
548
551
546
547
545
544
541
534
538
534
536
533
534
533
529
531
525
526
525
523
521
522
520
522
515
516
517
516
514
514
513
512
516
511
510
506
506
505
504
504
502
497
502
498
503
501
500
501
502
502
502
498
501
502
503
504
503
502
504
500
500
503
502
505
504
506
504
504
503
506
504
504
501
498
501
497
500
503
498
498
498
495
498
496
494
498
494
495
494
494
493
494
497
495
492
494
496
493
494
495
492
494
494
493
495
494
494
492
492
492
492
494
494
491
490
489
489
487
489
488
485
489
487
487
490
486
486
488
486
486
483
485
488
487
488
490
489
488
492
493
500
493
488
493
492
492
496
493
491
491
490
488
488
486
486
485
484
483
481
481
477
480
484
486
487
493
498
510
518
524
539
546
552
557
554
554
554
547
540
533
527
522
516
511
502
498
492
490
482
476
472
469
465
463
462
459
457
462
455
455
451
458
452
452
453
451
452
454
456
456
458
460
463
463
468
470
472
472
468
471
472
471
476
475
477
478
484
482
486
487
488
490
489
490
492
492
494
489
494
491
493
495
493
491
492
492
492
492
491
490
489
490
488
488
488
488
485
488
486
488
486
484
486
484
484
480
484
483
485
485
480
486
481
486
483
486
486
487
483
486
488
488
489
490
489
485
492
498
489
490
491
489
491
492
492
493
494
492
490
493
491
491
500
496
497
497
495
497
496
498
496
491
492
494
491
492
496
497
499
497
495
492
496
497
496
496
492
494
494
493
494
495
502
497
498
497
498
492
492
493
494
499
492
493
488
492
493
496
494
494
502
498
499
500
501
499
500
501
501
504
499
503
504
504
505
506
505
510
507
510
514
512
514
514
515
514
516
518
516
518
514
516
517
518
512
511
516
514
515
510
512
509
508
505
503
505
506
502
506
502
508
511
517
524
534
544
556
568
578
588
596
598
598
593
595
588
586
578
572
566
559
552
545
538
531
530
520
515
509
506
503
497
494
488
483
481
482
479
478
476
476
477
474
474
473
469
475
476
474
475
477
478
476
481
478
476
478
477
480
478
479
478
478
478
478
480
476
482
482
488
485
485
487
489
485
487
492
488
489
491
487
487
485
485
481
480
480
475
478
478
476
476
476
475
474
470
476
477
474
472
476
473
474
474
476
474
477
476
472
476
474
475
477
478
480
482
474
479
484
485
482
488
486
488
491
495
492
489
495
494
496
493
499
497
501
500
501
499
501
503
502
507
502
504
498
501
502
497
501
499
502
495
499
497
497
502
500
501
499
497
498
497
497
496
498
498
500
492
496
497
492
500
498
497
493
497
496
495
495
495
491
495
494
493
493
491
492
491
490
488
484
487
489
489
488
489
486
488
492
489
489
490
490
489
486
490
494
491
493
488
488
494
495
496
498
498
500
500
502
501
501
506
502
507
511
511
510
511
510
510
505
509
506
507
508
506
507
507
502
498
504
502
500
499
497
496
503
494
496
501
506
516
525
542
552
561
574
586
588
589
584
580
574
568
561
556
548
541
534
532
520
514
508
502
496
492
490
483
476
473
471
467
465
461
462
460
453
457
452
452
456
456
456
454
452
459
455
458
458
456
458
452
458
454
459
455
462
462
462
462
464
465
463
471
471
474
471
479
476
482
484
482
486
484
484
487
482
480
486
487
490
482
486
490
485
485
484
484
485
480
483
483
482
480
481
478
477
474
475
475
470
472
472
471
472
472
478
473
468
470
472
470
474
474
470
472
479
475
479
472
476
475
477
477
473
474
475
470
469
469
471
472
472
470
476
472
475
472
473
475
473
476
476
478
475
474
471
478
475
475
474
472
471
474
478
478
474
478
473
472
476
474
476
476
476
474
472
476
472
474
470
473
472
472
469
468
469
471
466
467
463
467
467
468
467
468
468
469
468
470
469
471
468
467
472
475
474
475
476
476
478
478
480
475
480
478
482
482
478
484
484
487
484
490
488
487
488
488
484
484
484
483
484
484
481
480
475
478
473
474
471
475
474
476
473
474
472
472
469
477
478
482
485
496
506
512
528
538
545
550
555
554
552
553
547
541
534
528
522
520
509
501
500
492
487
483
479
472
472
467
462
463
459
458
456
455
451
452
445
448
450
441
446
447
447
447
445
444
448
448
451
454
451
454
458
448
456
456
457
459
460
461
460
463
464
467
469
467
470
467
472
472
475
475
475
476
477
473
474
474
472
472
472
470
473
474
472
476
468
464
463
468
466
468
464
466
461
461
461
458
455
459
457
457
459
456
460
461
459
459
460
456
466
454
459
459
460
460
462
462
463
460
461
460
461
462
466
465
465
464
463
466
466
466
466
465
467
464
467
468
466
464
467
467
467
467
467
467
470
466
465
464
458
460
463
461
462
457
458
460
458
462
464
463
460
466
462
466
460
465
467
462
466
464
462
461
460
462
458
461
462
460
466
462
466
462
462
461
464
460
460
456
456
458
462
460
457
460
459
462
461
460
460
461
462
456
458
459
460
461
463
463
464
465
466
467
464
470
470
471
470
471
469
471
472
473
471
472
472
472
468
469
468
468
463
467
464
464
462
457
460
455
459
460
468
469
467
478
485
496
516
524
532
546
550
556
556
549
553
548
537
538
527
517
508
508
500
496
485
486
478
473
466
462
462
459
455
455
452
450
447
444
446
446
444
444
441
439
443
443
443
442
440
444
441
440
444
444
441
441
446
445
445
450
445
447
451
450
453
455
461
460
466
462
461
466
466
466
468
464
465
468
469
468
468
472
468
468
470
468
470
469
464
467
468
466
466
469
467
467
468
461
465
466
463
466
465
461
466
464
460
460
461
461
458
460
457
460
461
460
460
455
457
454
459
456
457
458
460
458
458
456
453
458
460
463
459
460
459
458
458
453
456
456
458
456
456
452
452
456
456
456
460
454
459
460
458
457
454
455
460
461
459
454
459
458
458
463
458
457
458
460
460
460
462
464
464
464
463
468
461
462
468
462
468
464
471
468
463
464
468
469
466
468
464
468
470
472
470
471
464
468
466
470
467
467
471
463
469
467
469
469
467
468
467
469
469
469
472
471
474
472
471
474
476
473
475
478
480
482
483
482
482
476
482
481
479
478
476
475
474
472
473
471
472
468
470
470
469
468
470
471
468
470
475
478
485
488
502
515
528
540
548
561
563
565
566
564
554
553
547
541
529
523
523
516
506
504
496
488
482
478
475
470
466
459
456
457
454
454
451
450
450
450
450
448
447
447
451
450
456
451
453
452
453
454
454
451
450
452
449
454
456
456
456
461
462
462
464
468
464
470
473
474
475
474
472
477
476
480
476
479
477
480
480
476
479
479
478
478
479
479
473
478
475
472
473
472
470
468
470
464
468
467
464
467
466
466
466
472
465
466
466
464
466
465
466
463
468
465
466
462
467
469
462
465
466
464
466
464
470
466
460
467
467
468
467
470
470
465
468
468
468
465
469
468
466
469
468
465
468
469
470
468
471
466
471
469
473
472
474
476
474
478
470
471
476
474
467
468
470
472
474
474
473
474
474
469
477
472
471
475
479
471
474
474
472
470
474
475
473
475
475
472
472
468
470
470
472
471
474
474
469
475
476
474
473
473
476
476
470
476
476
481
474
477
482
476
480
479
480
486
481
486
485
485
483
488
488
484
488
487
488
484
482
480
476
474
473
479
474
471
470
474
471
472
470
476
472
473
475
478
487
497
508
516
528
539
548
554
559
562
559
549
548
551
538
532
529
516
513
506
498
495
492
483
478
472
471
467
464
461
462
459
456
452
452
451
454
448
446
449
452
447
449
447
449
452
450
448
452
453
453
452
455
457
458
459
457
463
460
467
467
472
470
472
478
477
476
473
480
478
482
476
482
480
481
483
482
484
482
478
483
479
482
481
483
477
480
480
477
480
476
478
476
477
476
473
477
479
477
478
478
480
481
481
482
483
480
487
486
489
491
492
485
491
493
492
493
490
494
496
496
500
499
502
499
498
493
499
498
496
499
492
495
496
492
500
496
493
492
496
494
500
494
494
498
493
498
495
491
496
496
495
496
495
498
495
494
491
489
493
490
486
490
486
487
489
490
486
484
488
482
486
487
487
489
486
488
487
490
488
492
489
488
492
494
490
489
489
489
492
491
489
488
492
489
489
493
487
495
491
490
492
492
496
496
489
494
495
496
501
496
501
492
493
498
493
492
495
494
494
486
494
486
485
490
486
487
489
489
488
489
495
498
506
513
523
533
545
550
560
563
563
568
560
558
549
545
537
530
523
517
511
505
502
500
492
490
483
480
477
464
469
468
464
463
459
463
456
458
455
454
460
463
461
460
458
460
453
460
463
462
459
458
462
460
464
467
467
467
470
468
471
474
476
477
480
479
484
482
486
484
489
491
492
486
492
487
490
488
495
493
491
494
492
492
492
494
493
492
492
494
495
488
492
490
490
489
485
489
488
484
485
482
483
482
483
484
482
480
480
476
479
480
480
480
480
476
481
476
479
480
477
481
482
481
482
484
481
483
484
484
486
485
481
486
482
488
487
486
488
486
484
485
489
484
486
484
482
483
475
481
480
479
480
482
483
483
480
481
483
478
483
480
479
479
479
472
477
477
476
476
476
476
475
472
476
475
478
478
476
472
473
475
476
472
479
476
470
474
471
470
474
474
473
474
474
469
474
475
471
472
472
473
474
476
474
474
478
474
479
480
480
481
482
481
483
480
480
482
479
479
477
475
472
473
471
469
469
464
462
468
465
466
463
461
464
463
469
473
486
497
505
512
534
538
546
550
547
548
546
547
537
536
528
524
516
514
504
499
490
484
478
474
470
466
461
455
455
452
447
445
444
446
439
439
441
442
442
436
449
441
442
441
440
442
441
446
440
439
444
441
446
448
449
452
449
449
455
458
460
458
468
466
470
465
472
472
476
474
477
472
477
477
476
474
479
476
476
486
476
479
480
478
474
473
475
478
478
482
482
477
475
477
476
474
472
467
472
472
471
470
470
469
469
464
466
468
469
466
466
466
463
467
463
465
468
461
465
463
466
465
466
466
471
463
469
464
470
470
470
466
470
468
466
471
471
470
466
466
472
472
471
468
465
471
472
469
472
469
470
470
463
464
468
468
466
466
464
468
464
469
466
468
462
461
464
463
462
465
466
465
466
467
464
466
466
464
463
464
466
466
466
468
467
470
470
469
469
472
469
466
471
468
471
470
469
472
471
468
473
476
476
473
475
478
475
478
478
478
478
482
476
472
475
474
475
472
472
469
464
468
464
465
462
468
460
457
457
462
458
458
460
467
466
474
480
492
505
518
528
534
543
546
548
548
545
542
536
530
521
517
506
504
496
484
485
478
473
468
464
460
458
454
453
451
447
448
446
446
443
445
443
446
444
440
441
442
448
446
445
448
451
450
453
448
456
455
459
460
460
462
462
460
469
470
469
475
478
477
476
484
484
486
484
485
487
488
488
489
488
489
488
487
494
492
487
488
488
489
485
484
478
482
476
478
477
477
478
482
478
472
472
470
471
470
476
470
471
470
471
467
469
470
471
472
470
469
476
467
476
473
474
474
472
471
471
471
476
472
468
472
472
479
468
470
473
474
472
472
472
469
478
473
474
476
470
481
473
470
476
472
472
473
473
474
474
473
468
470
471
470
471
471
469
472
469
476
466
471
472
470
472
472
474
477
473
475
473
472
476
474
475
469
476
474
474
474
474
474
472
476
473
479
474
471
468
475
473
473
473
472
468
469
474
470
472
470
471
471
478
480
479
482
478
483
482
483
486
488
488
488
490
490
492
492
494
494
494
491
491
491
488
486
485
484
486
481
487
478
482
479
474
479
475
485
480
480
486
497
504
512
528
539
548
560
563
564
562
560
560
556
546
547
532
528
520
514
508
498
497
493
490
484
474
476
473
468
463
461
463
464
455
459
455
455
452
452
458
455
454
450
455
456
457
457
460
458
461
464
464
467
463
467
472
476
474
477
482
484
484
486
488
490
491
493
493
494
495
493
496
498
501
497
501
501
504
501
500
500
501
498
501
499
494
502
501
495
492
488
494
495
488
488
488
488
487
483
483
481
478
483
477
478
479
479
478
478
475
478
472
475
479
476
478
475
477
473
477
477
479
477
475
478
477
476
473
476
474
472
471
470
477
473
474
471
474
479
479
474
478
478
481
478
478
480
474
480
479
479
478
480
481
486
479
484
483
483
480
480
478
481
480
478
477
483
483
482
484
481
483
482
480
480
478
480
482
477
474
479
476
478
479
478
476
478
476
478
478
479
478
478
478
480
478
478
477
479
478
480
482
481
482
481
483
484
482
490
488
492
496
489
485
489
494
489
491
488
487
487
486
486
487
485
477
484
483
480
482
478
482
478
477
477
476
479
475
478
480
484
489
499
511
518
532
542
551
555
558
556
556
555
542
542
536
528
521
514
509
501
492
487
489
477
476
475
472
463
466
462
458
453
455
451
452
447
444
447
448
444
444
440
447
444
441
444
446
444
447
449
450
450
454
452
450
454
454
458
458
461
462
461
464
471
467
470
471
476
475
476
471
479
480
486
478
482
482
485
485
484
481
480
481
482
482
473
476
477
472
477
474
474
471
469
468
469
468
470
467
465
464
461
461
464
458
460
459
458
457
451
455
455
457
452
458
456
459
457
456
458
464
466
466
469
463
469
468
471
464
474
469
476
475
475
479
479
478
476
476
478
480
478
479
476
478
477
472
472
473
475
477
478
476
478
476
476
476
475
476
476
476
476
470
473
472
474
474
475
472
473
472
466
472
471
471
472
472
476
473
469
471
475
472
473
474
469
473
475
474
475
474
475
474
472
478
475
474
473
469
472
467
472
469
466
471
468
470
472
474
472
474
470
470
467
469
468
473
470
474
469
471
473
473
469
471
472
471
472
474
476
470
466
468
468
460
460
464
463
463
468
465
464
461
462
461
465
458
457
458
460
460
465
470
478
488
497
509
524
538
544
549
552
554
552
546
541
537
528
528
517
508
503
496
490
480
478
479
464
462
458
454
450
447
446
437
434
432
430
429
430
428
426
426
426
424
428
423
424
434
429
434
432
428
432
432
435
436
436
438
440
442
438
440
446
446
447
446
454
451
454
450
458
456
456
457
454
458
457
456
456
462
457
456
458
454
458
460
458
453
456
452
449
449
447
447
444
446
446
444
443
446
439
443
440
443
439
437
437
441
444
444
443
443
444
445
440
439
441
441
446
449
449
448
448
451
452
451
452
454
455
454
450
452
455
457
460
457
458
454
456
454
459
459
458
454
457
464
459
459
462
460
456
464
461
458
460
465
460
458
460
458
464
458
458
459
459
459
460
460
458
458
458
459
463
463
461
456
462
461
460
458
454
462
461
458
459
461
461
455
462
456
457
463
463
464
460
464
466
467
467
468
466
466
463
472
467
468
469
466
468
465
465
466
465
463
464
464
466
465
465
466
468
468
472
467
472
472
472
476
473
480
475
479
478
478
475
479
472
476
474
476
476
476
476
473
474
474
466
470
470
462
464
458
461
456
459
460
455
459
459
464
462
473
482
494
507
515
527
538
546
548
552
550
547
541
537
534
522
515
509
501
495
488
486
478
472
467
465
462
460
458
457
447
445
446
440
443
440
439
436
436
439
439
435
440
441
439
443
442
443
445
445
446
444
449
452
452
448
451
454
457
457
457
460
461
464
466
468
468
471
469
472
472
472
469
472
473
473
472
472
472
472
470
472
471
472
469
464
467
471
467
464
463
464
461
460
459
458
458
458
456
457
454
458
459
454
456
454
455
457
452
453
452
451
451
451
452
447
451
452
453
448
450
448
454
455
460
457
458
456
457
454
452
452
460
462
452
457
451
462
458
456
463
457
460
456
459
456
458
453
459
456
458
458
458
456
456
458
455
454
458
454
459
455
461
455
455
458
452
459
460
455
460
457
461
462
461
462
462
461
461
463
460
457
464
464
464
464
463
463
464
463
464
466
465
466
466
468
467
468
462
470
464
468
467
463
468
463
469
471
468
470
465
472
468
467
469
471
469
468
468
470
466
471
473
469
474
475
472
478
476
476
480
479
478
481
476
482
477
476
476
476
474
473
469
472
473
472
470
464
468
471
471
465
465
470
466
470
472
475
479
488
496
509
520
530
543
546
552
548
548
544
542
534
530
519
515
507
505
494
485
480
476
472
470
460
458
457
456
454
446
448
448
448
447
445
443
450
449
445
451
448
445
442
444
446
449
448
449
450
452
448
450
454
457
457
452
460
455
462
463
464
467
467
467
470
473
474
474
471
474
477
476
477
478
478
478
479
480
482
480
480
477
478
480
469
480
475
470
466
474
469
470
469
468
463
467
465
466
465
466
466
466
466
463
464
471
466
465
467
470
470
470
472
471
472
474
478
472
477
479
484
479
487
483
485
487
488
490
494
493
492
494
497
496
494
497
500
502
498
502
504
500
504
500
497
500
504
507
504
506
502
501
503
503
501
499
500
497
500
497
507
499
499
500
498
502
495
497
496
495
497
496
495
494
495
495
494
492
492
489
491
498
498
496
493
490
495
496
487
489
486
494
491
494
486
489
484
484
488
487
486
483
486
479
483
483
478
480
477
482
477
479
478
480
477
477
481
486
477
483
477
481
480
486
486
486
486
488
488
488
484
488
489
483
492
484
484
484
479
481
480
471
472
474
474
470
476
470
466
467
464
470
474
476
481
490
511
517
530
543
552
557
562
559
560
551
554
546
533
529
520
518
510
504
495
494
488
483
479
472
471
467
464
463
459
462
452
455
453
452
448
451
450
449
450
443
452
447
445
454
448
453
451
454
454
454
455
457
455
459
459
463
464
460
468
466
465
469
470
470
467
472
478
478
476
480
487
481
483
478
479
482
480
483
483
481
482
483
483
480
483
480
479
484
486
482
482
483
482
482
482
483
479
476
480
484
482
479
481
478
482
483
481
482
483
481
480
483
480
483
482
483
483
484
484
485
485
486
486
488
487
484
487
485
483
484
485
478
486
485
488
482
487
486
486
485
486
482
486
487
483
492
486
485
492
490
493
490
491
490
489
493
489
492
492
492
492
488
492
494
496
494
496
496
500
494
500
501
495
504
502
502
500
500
501
504
504
500
504
505
502
504
504
501
503
504
504
499
506
512
510
511
518
520
524
530
532
540
546
546
556
563
575
579
591
599
603
610
621
628
638
639
652
656
670
676
687
689
702
707
714
720
728
734
734
744
747
754
758
754
760
757
756
759
752
758
754
754
756
749
744
744
746
750
746
752
760
757
768
778
785
796
788
792
788
784
778
766
756
746
733
723
708
699
690
676
666
649
644
630
623
613
604
598
590
575
569
561
555
549
540
532
526
519
513
507
503
499
494
489
486
482
478
477
476
467
474
474
473
468
476
474
469
467
475
476
473
479
474
477
475
475
476
476
473
474
480
472
470
470
464
466
465
466
466
463
466
462
470
462
462
458
456
452
452
452
448
443
438
438
428
421
418
413
405
403
390
391
380
374
373
372
365
366
364
362
360
356
356
357
351
348
348
342
346
342
341
339
332
333
334
334
332
331
330
330
327
326
330
322
325
323
321
324
319
316
316
325
320
320
323
313
316
322
319
317
320
322
326
320
323
320
325
322
329
331
331
329
335
336
334
330
341
342
345
345
344
350
351
353
355
357
355
360
359
361
366
364
365
367
369
372
371
374
375
380
378
378
382
381
383
386
386
387
388
393
396
398
398
400
402
407
404
406
408
409
407
412
414
414
419
420
421
424
428
424
431
431
435
438
440
442
443
446
444
445
447
447
447
448
447
446
448
448
443
447
447
448
444
448
446
444
446
446
442
446
445
447
447
456
464
474
488
494
510
521
530
534
540
543
536
533
528
519
513
510
500
498
492
484
479
475
469
466
464
461
458
452
447
450
446
441
440
441
441
438
436
438
436
439
438
436
438
439
439
438
436
442
441
442
443
447
446
448
450
449
454
461
456
456
462
460
468
465
469
471
469
475
479
480
479
483
480
485
482
484
481
486
487
484
486
486
486
486
483
485
486
485
484
480
480
482
477
476
482
484
479
479
481
478
478
477
476
473
477
476
478
474
475
476
476
476
476
481
471
473
479
474
472
475
475
477
477
478
479
477
480
477
481
478
480
481
483
480
484
476
480
480
481
484
480
484
478
481
479
478
477
477
480
480
481
481
482
483
481
485
480
485
481
483
482
482
483
482
481
482
484
486
484
486
485
485
482
479
482
484
481
483
486
483
483
477
476
480
479
482
480
483
476
480
479
480
483
483
480
482
484
484
480
486
482
484
482
480
484
485
486
491
495
486
491
494
491
495
489
496
494
495
493
493
492
495
488
484
490
483
482
476
475
472
476
476
472
470
472
468
470
470
470
471
472
477
483
494
503
513
527
540
545
558
558
560
559
552
550
540
535
530
521
520
512
505
499
491
480
479
473
473
469
460
462
460
455
456
454
451
448
447
450
442
443
440
439
436
440
439
434
437
440
438
439
440
445
442
443
441
440
448
449
452
453
453
451
454
454
459
460
464
466
463
465
464
472
473
476
473
475
477
478
484
479
476
481
481
482
483
481
481
482
482
480
478
479
479
476
477
476
476
475
474
473
472
473
473
472
474
469
476
473
471
474
470
475
472
475
473
474
474
474
475
475
475
478
478
477
479
476
481
478
482
480
476
482
479
476
480
480
479
474
478
477
478
475
476
478
479
478
478
483
479
478
478
476
473
473
473
473
472
478
471
468
469
471
470
470
469
468
463
466
469
468
468
470
470
466
467
471
467
468
470
467
470
467
463
468
466
466
466
466
464
467
468
465
464
467
469
464
467
468
462
465
468
466
466
466
465
467
468
466
464
460
464
465
462
462
467
460
467
468
470
470
472
468
471
476
475
474
472
476
474
473
472
473
474
464
467
467
466
463
462
461
464
464
464
462
462
459
458
455
458
462
461
469
480
491
501
514
528
536
542
551
554
556
555
550
543
541
534
529
521
514
507
501
497
490
484
475
476
471
468
464
462
460
454
455
456
453
454
448
451
452
450
453
451
453
452
453
454
456
457
454
454
456
458
460
462
464
461
467
468
465
469
469
471
473
473
474
477
479
479
486
482
487
487
488
484
486
484
488
488
488
485
486
484
480
477
478
471
461
462
457
452
443
440
432
429
422
415
408
405
400
396
392
387
385
387
380
375
374
371
372
368
366
361
362
359
357
354
355
352
348
351
352
345
349
348
346
343
348
349
343
345
350
348
348
348
351
347
346
348
346
349
346
348
348
347
349
350
351
347
347
354
349
352
353
354
351
355
356
358
360
350
358
350
353
347
349
352
347
347
349
343
347
343
342
342
340
340
340
340
340
342
341
340
338
338
338
338
336
336
337
336
336
330
334
332
332
334
329
328
338
331
330
328
328
327
328
325
327
323
323
324
324
326
325
326
324
324
327
327
330
330
326
332
333
333
334
334
338
334
341
344
344
343
343
344
340
340
335
340
339
340
337
340
335
338
337
339
339
338
339
340
334
340
338
341
339
341
352
355
370
382
391
406
417
422
422
425
427
421
420
417
410
403
397
390
380
374
366
362
356
350
346
338
337
334
331
327
324
322
319
318
316
317
314
313
312
306
311
311
304
308
309
309
306
308
307
306
301
303
306
304
305
306
302
304
306
304
303
304
301
304
299
302
303
304
299
299
298
294
293
296
295
294
294
293
293
289
290
286
289
288
291
292
290
289
287
289
292
294
295
296
298
297
300
299
301
304
305
303
309
310
312
315
312
319
323
320
321
326
328
328
332
334
336
337
338
340
345
346
346
349
353
353
358
360
363
366
369
368
369
372
374
370
378
380
380
381
384
385
385
388
390
391
395
394
394
397
396
398
398
400
404
400
398
403
404
404
405
406
407
407
411
411
413
415
413
410
414
414
415
419
418
416
420
422
421
420
420
421
421
417
422
423
422
427
423
425
424
423
420
426
426
427
427
429
430
432
431
431
432
432
434
432
436
434
433
438
438
441
444
440
442
448
450
451
452
454
454
456
453
458
457
456
455
455
451
455
447
446
448
451
448
446
444
443
446
444
444
442
436
437
440
443
446
450
458
468
480
489
500
510
518
523
526
525
523
520
518
511
505
497
492
487
479
478
471
466
461
453
454
449
447
441
442
441
435
436
436
434
434
430
433
428
428
434
426
430
428
430
430
429
429
430
429
430
432
430
430
434
434
435
432
438
439
440
446
445
444
447
448
448
447
448
448
445
450
448
449
449
450
450
450
450
449
451
453
451
452
447
450
447
447
446
449
447
445
448
444
444
444
442
442
440
437
438
436
438
436
432
436
437
433
437
438
438
440
439
436
440
442
440
437
438
438
440
437
443
442
442
441
446
444
446
446
446
446
447
446
444
446
446
446
442
445
444
446
442
444
444
446
448
447
445
446
446
441
443
445
445
446
448
446
442
448
444
446
444
446
444
444
440
444
441
442
445
444
443
443
445
444
444
450
445
446
445
440
444
446
448
447
447
451
450
449
448
445
447
449
447
447
446
447
447
447
448
449
448
447
446
444
447
450
442
446
448
447
441
451
450
450
451
452
452
454
456
455
458
458
457
457
461
461
460
461
459
458
457
457
459
458
456
455
454
450
452
453
451
445
449
450
448
451
449
456
459
464
467
478
493
506
518
527
538
544
546
550
546
538
538
538
524
518
508
503
493
492
484
482
471
466
462
456
451
447
446
443
440
436
434
433
433
429
426
426
426
423
420
422
418
422
423
422
419
426
426
429
430
432
432
434
434
436
436
438
439
444
436
440
441
442
439
444
446
442
444
447
445
450
452
451
449
454
454
458
454
454
453
455
456
456
454
458
458
456
452
455
453
450
446
448
447
442
446
444
446
444
444
442
444
444
444
444
441
445
445
445
441
446
446
451
445
448
446
445
444
443
448
448
448
450
448
452
456
450
454
454
456
457
456
458
456
458
458
458
457
455
463
458
458
457
455
458
458
457
462
458
457
455
455
458
459
458
458
457
460
454
455
459
460
461
460
455
458
458
456
458
453
458
452
458
458
457
458
458
460
460
460
456
458
458
460
456
459
460
458
456
458
458
456
455
455
455
454
451
453
452
453
454
449
450
454
452
455
454
454
457
457
456
459
458
460
461
460
461
463
463
465
467
468
468
469
474
473
477
472
476
474
475
474
468
473
466
468
469
468
466
464
464
461
461
460
458
460
461
460
459
458
460
456
461
467
475
486
500
513
522
534
542
548
548
543
546
542
536
525
523
517
509
502
493
488
480
474
472
467
466
458
454
451
448
446
442
438
438
434
436
431
432
430
430
432
430
429
430
427
434
431
432
435
432
432
434
434
434
433
437
440
442
439
442
444
445
447
447
451
451
454
454
453
456
459
454
458
461
460
459
462
461
460
462
459
459
455
459
458
457
458
456
456
455
455
454
455
454
455
450
450
450
449
448
447
445
444
442
438
441
444
442
442
443
441
440
444
438
444
441
443
442
443
444
446
446
447
447
449
447
444
448
449
452
444
444
448
449
448
449
448
448
451
450
448
452
452
450
446
451
450
450
451
451
448
451
447
449
453
451
452
452
452
455
453
455
455
455
457
454
454
453
456
454
458
456
458
456
458
462
463
465
466
462
466
469
470
470
468
468
467
468
465
468
465
468
470
470
471
475
471
472
471
473
474
469
473
472
472
476
474
476
475
474
474
473
473
474
476
477
478
477
478
481
483
478
482
488
483
486
486
488
486
484
484
483
480
481
478
477
477
480
472
471
472
469
466
468
466
466
465
464
466
466
470
472
483
498
504
514
526
531
542
544
546
542
539
537
525
524
520
509
507
500
494
491
483
478
471
471
466
462
456
456
454
451
450
450
446
445
445
442
441
444
444
444
446
446
446
447
447
450
449
448
451
452
451
451
454
456
456
460
460
461
464
465
465
464
471
471
471
475
472
475
476
478
478
480
482
482
487
483
481
481
481
482
481
482
484
479
480
484
479
479
478
476
470
472
472
472
470
470
471
471
470
469
469
467
463
466
461
465
462
464
464
462
464
464
463
461
461
468
460
465
460
464
462
464
461
464
464
465
467
467
468
468
470
471
468
468
467
467
468
469
463
469
470
469
468
470
467
466
470
466
466
465
464
462
463
462
457
462
461
458
457
462
460
462
462
462
464
464
463
462
464
461
464
466
465
461
462
467
469
468
470
468
465
468
466
472
467
468
468
468
468
469
470
472
471
474
474
474
471
474
476
474
476
477
476
477
477
476
477
479
482
479
477
481
480
483
486
484
485
492
488
495
494
492
502
496
492
495
497
495
490
493
492
491
490
490
487
490
483
482
485
485
483
483
484
486
482
483
487
493
498
505
516
526
537
551
562
569
573
573
573
567
566
559
554
548
541
531
525
520
512
506
506
499
498
492
488
483
480
476
472
468
470
467
466
465
465
464
462
462
463
463
461
462
460
456
460
457
461
458
460
460
466
462
464
461
461
468
472
478
474
475
479
479
475
481
481
482
482
482
485
484
483
485
484
484
486
485
485
486
486
485
486
488
484
481
486
480
483
485
480
477
480
481
476
476
476
473
473
473
468
470
471
465
470
468
466
468
466
466
466
466
464
462
463
462
463
462
464
463
466
466
464
464
464
468
462
462
462
461
463
464
464
466
467
465
465
466
465
461
458
457
459
461
462
461
461
461
459
461
460
463
458
460
460
462
462
462
461
461
460
456
458
459
460
462
459
459
460
462
463
462
464
462
462
462
464
464
464
461
461
462
460
461
464
460
464
466
466
464
463
465
466
465
465
460
463
463
463
462
462
462
460
456
460
462
462
462
461
462
464
462
464
464
464
464
464
462
466
467
465
469
469
472
472
471
468
467
468
473
471
468
470
469
463
466
464
460
462
459
460
462
460
455
453
458
455
456
453
464
461
467
471
484
494
508
521
532
539
548
551
553
550
548
542
537
527
521
518
510
503
498
490
484
479
475
469
460
462
459
452
453
448
446
445
442
442
440
438
436
437
436
436
435
436
432
437
437
442
437
438
440
441
442
441
446
447
447
448
451
452
452
456
458
456
461
464
462
464
467
470
472
469
470
470
470
472
466
469
467
468
466
468
467
466
466
464
464
466
462
460
457
460
455
456
456
457
449
453
452
449
450
452
448
451
450
446
448
447
447
444
447
447
448
447
448
445
449
446
448
444
447
454
450
451
451
452
451
453
447
453
452
455
452
447
452
450
455
452
452
451
446
451
454
452
450
450
449
449
448
448
452
445
446
450
449
450
450
452
450
451
448
450
447
452
445
447
444
444
445
446
450
447
449
445
446
441
446
441
445
442
446
444
444
447
441
446
445
447
444
445
444
440
442
440
436
445
438
442
438
439
444
443
445
445
445
445
447
444
447
444
446
450
443
444
443
444
444
444
450
450
449
448
449
450
451
457
452
454
454
452
456
457
458
453
458
458
457
460
458
458
452
453
455
454
452
453
452
451
444
445
447
445
445
444
444
442
446
449
452
454
460
471
482
495
504
519
526
534
537
538
536
530
524
520
511
504
497
491
482
476
472
466
460
453
452
447
443
440
442
435
434
432
434
430
430
432
428
430
426
432
426
428
434
431
433
434
436
437
437
437
438
446
444
445
450
448
445
452
454
460
455
460
462
464
467
470
469
473
472
475
476
472
477
478
478
476
482
480
481
477
476
480
476
478
473
474
474
472
468
468
470
469
468
467
463
464
462
457
459
458
458
457
456
455
451
453
450
454
448
450
450
452
451
452
453
448
452
452
454
453
454
454
452
456
456
455
458
460
456
461
461
462
460
462
462
462
463
464
464
465
465
465
464
465
461
466
466
465
465
461
464
465
464
461
466
466
467
464
466
462
462
465
463
464
463
464
464
462
464
466
462
465
468
460
464
464
465
465
465
468
460
464
463
462
461
465
460
462
462
461
464
464
462
463
463
458
460
460
457
458
460
462
462
461
462
462
462
463
461
459
460
458
461
457
460
458
455
459
462
462
460
456
463
461
468
462
468
468
468
468
470
470
465
468
468
470
467
468
469
466
466
464
462
460
457
453
454
459
452
449
449
450
448
448
449
446
452
452
460
467
472
484
501
510
522
530
534
533
536
529
530
525
518
514
506
502
494
486
480
477
472
471
462
455
452
448
444
440
434
434
429
429
424
427
423
424
426
424
421
427
425
426
430
428
424
430
430
429
427
432
432
430
435
437
436
439
442
442
443
445
449
449
451
454
454
456
455
455
462
462
462
466
463
466
465
466
467
463
462
470
467
461
466
466
465
462
462
460
462
458
452
456
454
452
452
451
451
446
446
444
444
441
443
437
442
437
441
440
440
442
442
440
443
443
441
443
439
444
444
439
443
438
447
443
443
438
442
445
444
441
444
442
444
447
445
446
447
449
448
444
446
447
447
444
447
447
447
442
448
449
443
450
447
446
445
448
450
449
454
447
449
447
447
445
448
448
450
450
449
449
450
452
452
452
451
452
452
450
451
451
449
450
450
450
446
445
452
451
449
453
453
455
454
454
456
456
456
454
456
455
451
454
456
455
452
456
456
458
458
460
460
460
459
461
462
457
461
463
466
466
467
468
470
470
472
471
469
473
474
473
476
478
479
477
481
483
482
483
481
478
481
477
480
478
478
478
476
474
472
473
473
472
475
475
472
468
473
472
475
478
484
495
502
512
523
535
546
557
561
562
563
557
553
548
539
534
526
514
512
506
501
488
484
482
477
473
467
465
462
456
455
449
447
447
445
445
442
436
440
439
436
438
434
439
437
438
440
440
440
440
441
442
441
445
441
447
446
448
446
450
447
452
454
454
457
456
458
460
458
465
466
466
467
469
468
468
470
471
469
467
470
472
472
466
471
470
468
468
462
464
461
461
458
457
460
461
462
461
460
462
460
458
459
459
455
458
458
453
457
456
457
458
458
459
459
460
462
463
461
463
464
466
466
466
466
463
466
464
465
464
466
466
466
464
462
465
466
465
464
464
468
467
465
466
465
464
466
464
463
460
464
461
463
458
461
462
459
461
457
458
458
460
459
460
458
457
459
461
458
463
460
459
458
460
458
458
455
459
458
456
456
460
459
457
460
458
460
457
460
459
459
456
455
455
452
456
457
458
457
458
459
458
458
458
454
458
457
456
456
457
458
456
453
452
456
456
451
456
456
458
458
455
461
463
464
464
462
466
467
468
470
466
469
471
469
468
470
467
468
467
464
462
465
460
461
462
461
459
454
454
456
454
454
453
454
457
457
468
475
485
498
507
519
528
534
539
539
536
533
528
523
511
510
498
496
486
481
476
467
465
459
452
453
450
446
442
441
436
434
434
434
432
426
431
428
428
427
428
430
430
428
427
424
429
428
427
430
428
431
427
430
432
433
437
437
438
439
436
444
441
447
444
450
450
449
452
455
452
453
455
459
458
458
459
457
456
453
457
456
454
452
449
452
450
450
447
441
442
446
445
446
444
442
438
434
442
435
436
435
434
434
433
433
433
434
430
432
431
434
434
432
435
433
435
435
435
437
436
440
438
435
438
440
439
441
442
440
442
440
443
443
443
442
442
442
441
444
443
444
444
442
444
443
444
445
445
444
445
441
444
445
446
440
446
445
443
447
444
446
444
447
447
445
445
446
444
444
446
451
448
447
448
444
445
447
450
443
441
448
446
449
447
443
446
446
447
448
446
444
444
445
446
442
442
444
445
444
447
446
446
447
451
450
450
448
452
454
454
454
454
456
457
458
460
463
463
465
468
466
468
469
468
468
463
466
467
462
460
458
457
457
455
451
453
452
450
457
454
453
454
449
456
464
467
474
483
494
504
512
527
532
537
540
537
536
530
524
515
511
505
499
492
481
477
472
466
462
456
450
442
445
440
438
439
430
432
429
427
428
428
427
428
425
434
431
431
430
432
432
433
431
434
433
438
439
440
440
440
441
442
441
446
447
449
447
453
454
453
459
458
461
463
464
464
466
466
470
470
472
472
472
471
470
469
470
471
470
469
468
468
463
464
460
457
458
453
455
450
453
449
453
450
450
444
448
447
452
446
445
445
445
444
444
444
443
445
445
448
447
445
449
446
446
450
451
451
451
450
451
450
451
452
451
451
453
452
452
452
453
453
456
454
451
456
456
456
456
453
455
456
456
456
455
455
454
456
451
454
452
454
450
451
453
454
454
451
449
454
449
452
454
454
449
453
453
453
455
452
456
454
456
452
452
454
449
452
448
452
454
454
448
450
452
452
452
452
455
454
453
452
451
452
452
452
451
449
449
452
447
452
449
448
450
452
452
452
458
451
456
459
457
460
460
458
461
463
461
458
463
466
460
458
457
459
453
454
454
455
450
450
450
446
444
450
446
441
444
442
447
449
452
458
458
472
490
500
509
521
534
542
544
542
540
536
533
524
522
514
511
506
498
494
482
480
477
470
462
464
460
457
454
450
445
440
446
441
440
435
437
439
434
442
435
435
437
437
438
440
439
438
443
442
444
446
446
446
444
453
447
451
452
453
454
457
455
460
463
463
468
469
468
470
472
476
470
472
476
470
470
463
477
474
471
466
467
466
468
466
465
463
462
458
453
456
455
449
452
450
448
450
449
445
442
448
445
443
444
445
440
438
444
445
444
440
442
446
446
442
447
449
441
451
450
445
447
446
442
441
442
444
444
444
444
449
452
444
440
445
451
448
448
448
448
452
447
443
445
448
445
445
444
441
445
442
442
443
440
442
441
442
439
446
440
444
439
442
440
444
438
446
442
444
446
447
447
443
447
446
444
447
439
446
446
446
442
442
445
451
444
448
449
444
450
454
445
450
450
448
448
454
445
446
444
444
444
446
448
445
443
452
450
450
446
450
453
446
460
452
458
460
462
461
458
462
464
464
463
468
467
467
470
465
466
460
462
464
467
462
460
456
456
459
454
450
454
452
449
451
451
449
450
453
457
466
472
480
496
504
521
533
542
547
548
552
546
540
536
528
520
510
502
492
489
482
476
472
466
462
453
454
449
442
443
435
436
433
432
428
429
424
421
426
423
426
424
422
426
425
424
424
426
422
428
428
429
429
434
431
431
434
435
439
440
446
446
449
447
452
451
454
455
454
457
462
457
460
460
460
463
461
463
463
459
457
456
459
455
460
459
455
457
458
456
455
452
448
446
450
447
446
446
446
445
444
446
446
446
442
444
445
444
444
444
446
444
445
444
445
446
444
445
446
446
448
447
455
445
450
448
446
447
451
451
451
450
452
448
454
457
456
453
452
454
449
453
452
450
450
450
451
450
450
447
452
453
450
448
452
454
454
456
452
453
452
450
451
453
454
446
458
449
452
457
448
448
450
452
452
453
450
452
452
456
457
454
458
460
460
456
455
458
454
458
462
461
460
462
460
462
460
464
457
457
459
470
460
462
465
469
472
472
475
471
482
472
485
484
482
484
491
485
492
492
486
487
487
490
488
486
484
484
484
486
483
487
482
479
480
483
485
478
484
479
477
480
488
498
495
511
522
526
543
550
558
560
563
559
558
556
548
542
537
529
519
517
514
507
501
496
491
486
480
480
477
471
476
464
466
462
460
462
458
458
458
452
457
456
456
457
456
449
456
458
456
456
456
451
456
457
459
455
457
462
463
465
466
469
466
472
476
478
474
475
477
476
481
482
485
480
483
484
485
488
485
482
484
484
486
487
486
486
483
481
487
480
477
481
478
479
477
478
473
474
474
470
475
466
471
464
464
466
469
472
469
472
470
466
480
477
478
476
484
484
474
481
476
482
481
482
482
482
487
482
478
481
485
485
482
488
490
486
491
488
490
487
489
490
490
484
489
491
489
489
490
486
490
484
495
490
488
492
492
488
495
490
493
487
491
494
495
493
489
491
488
490
487
492
486
495
490
491
488
486
490
489
490
488
484
488
488
490
492
490
492
491
489
489
498
494
495
490
495
496
490
494
498
498
495
494
495
488
492
497
494
495
496
496
496
498
501
504
502
503
505
502
502
507
507
504
505
505
506
506
504
504
500
496
499
499
497
496
492
490
492
496
490
491
488
489
488
485
488
494
490
500
506
518
530
538
550
560
568
571
571
570
569
561
560
550
545
538
532
521
518
508
504
497
491
484
480
475
476
472
471
460
461
459
455
458
460
453
452
452
449
448
446
447
447
447
447
446
446
447
447
448
450
450
451
454
458
457
460
463
463
466
464
467
460
462
472
472
470
471
474
469
472
467
474
473
470
476
472
474
475
476
476
479
470
472
470
472
474
463
474
467
468
463
461
459
457
458
464
460
457
450
456
456
456
455
458
455
448
449
448
445
451
449
445
447
450
447
447
444
452
446
448
450
449
455
451
452
453
455
450
458
454
452
458
456
456
456
456
457
451
454
455
456
454
454
454
449
452
452
451
452
452
448
449
452
452
447
451
449
447
452
452
450
453
454
453
453
452
452
452
453
453
449
453
454
453
456
454
452
452
453
458
455
450
454
454
455
452
460
455
452
454
454
446
448
452
450
451
452
446
452
449
446
450
452
453
451
450
450
447
449
449
449
445
447
443
446
446
447
445
443
449
450
450
446
451
452
456
458
454
460
460
460
459
461
460
459
458
457
459
460
459
456
455
455
456
449
451
452
451
442
446
444
446
444
445
444
444
446
450
459
467
481
490
506
512
521
535
538
536
532
530
530
524
516
509
504
504
491
490
484
477
470
470
466
463
453
452
450
451
442
441
436
431
430
430
433
424
426
427
424
427
424
428
427
430
428
431
429
432
430
434
433
434
435
437
440
437
439
442
442
444
452
446
452
450
454
457
459
457
461
466
462
465
461
464
462
464
465
465
461
460
464
465
459
455
456
459
456
458
460
456
452
452
453
448
446
443
438
443
440
442
438
445
440
436
440
432
433
442
438
438
436
442
436
440
440
443
441
446
440
436
436
433
440
440
440
442
446
444
446
442
438
442
443
441
444
441
443
445
441
440
444
440
442
444
442
444
443
447
444
444
442
446
446
445
444
444
446
450
441
445
446
446
443
446
446
444
445
448
444
446
444
445
444
444
442
440
443
442
444
447
448
449
446
444
445
447
446
445
442
443
444
444
446
442
444
444
446
447
447
447
450
449
444
450
452
452
450
452
460
458
457
456
460
461
460
468
464
466
462
467
466
467
464
461
460
461
459
458
452
455
454
450
452
452
452
451
452
452
446
451
448
450
452
453
458
462
471
482
490
504
516
522
530
534
533
534
527
532
518
512
511
506
494
492
487
480
474
471
465
460
456
453
451
449
446
446
442
442
442
436
434
436
438
435
440
438
440
435
440
440
435
441
440
440
446
446
443
448
447
449
451
452
454
457
453
460
456
465
462
463
475
468
470
470
469
464
470
467
466
461
464
465
463
465
465
464
462
462
462
460
462
463
460
462
466
461
461
462
458
456
458
458
457
454
454
453
448
451
454
448
450
452
450
449
448
450
446
446
448
447
447
452
454
453
455
458
460
460
463
465
463
470
471
475
477
481
476
477
478
481
482
482
482
485
492
490
486
493
496
496
503
508
501
507
509
506
504
500
490
481
458
435
398
352
311
248
185
114
45
0
2
2
1
0
0
0
0
0
0
1
1
1
1
1
1
0
1
0
1
1
0
1
0
0
0
0
0
1
2
1
1
0
0
1
1
1
0
1
0
0
0
1
3
0
1
2
1
2
0
0
8
10
14
18
28
34
41
47
53
62
67
72
76
80
90
98
98
109
111
116
119
127
131
137
139
146
149
157
161
170
176
181
191
197
210
217
232
256
267
288
308
328
338
348
368
368
373
374
373
369
369
366
361
355
354
356
347
346
340
346
344
342
344
342
342
346
343
339
344
343
346
347
348
351
349
352
355
357
359
359
363
363
363
366
366
364
365
374
373
372
374
380
380
381
383
385
388
392
396
399
399
401
401
400
402
400
399
397
399
401
402
398
396
400
396
395
396
392
392
390
388
378
377
376
369
368
364
362
357
354
349
348
345
341
340
339
333
335
336
328
329
328
328
329
327
320
325
322
327
317
321
321
322
316
324
321
320
324
322
317
320
321
326
322
319
319
322
325
325
322
316
311
304
297
291
280
277
270
267
265
263
260
263
261
264
259
260
261
257
260
263
263
263
266
269
